Cycle	Time [s]	CoP X [cm]	CoP Y [cm]	Back Left Force [kgf]	Back Right Force [kgf]	Front Left Force [kgf]	Front Right Force [kgf]
138	4.577162e+00	3.100963e+00	-2.362009e+00	1.326798e+01	1.605848e+01	7.081148e+00	1.243835e+01
139	4.639421e+00	2.266249e+00	-2.336477e+00	1.371493e+01	1.517675e+01	7.293700e+00	1.201753e+01
140	4.650952e+00	2.266249e+00	-2.336477e+00	1.371493e+01	1.517675e+01	7.293700e+00	1.201753e+01
141	4.670888e+00	2.133584e+00	-2.287882e+00	1.372321e+01	1.501289e+01	7.388167e+00	1.197707e+01
142	4.703857e+00	1.905574e+00	-2.332607e+00	1.382253e+01	1.481781e+01	7.403913e+00	1.175048e+01
143	4.748453e+00	1.782879e+00	-2.391037e+00	1.397152e+01	1.474759e+01	7.364551e+00	1.165336e+01
144	4.776978e+00	1.609596e+00	-2.483777e+00	1.419491e+01	1.475539e+01	7.372423e+00	1.149960e+01
145	4.809305e+00	1.380223e+00	-2.639486e+00	1.447600e+01	1.470857e+01	7.293700e+00	1.123255e+01
146	4.846886e+00	1.094208e+00	-2.828122e+00	1.493070e+01	1.477880e+01	7.277955e+00	1.098168e+01
147	4.888914e+00	1.109847e+00	-3.080703e+00	1.522833e+01	1.512993e+01	7.081148e+00	1.077936e+01
148	4.913281e+00	1.017730e+00	-3.206108e+00	1.545981e+01	1.526258e+01	7.041786e+00	1.064179e+01
149	4.951349e+00	1.632003e+00	-3.327769e+00	1.502991e+01	1.591023e+01	6.766255e+00	1.066607e+01
150	4.974972e+00	1.993431e+00	-3.287399e+00	1.472402e+01	1.614432e+01	6.671787e+00	1.084410e+01
151	5.013124e+00	2.915529e+00	-3.210796e+00	1.398807e+01	1.677635e+01	6.404128e+00	1.128920e+01
152	5.044841e+00	3.511269e+00	-3.079313e+00	1.345835e+01	1.708067e+01	6.286044e+00	1.168573e+01
153	5.074285e+00	4.052879e+00	-3.030219e+00	1.300312e+01	1.727574e+01	6.026257e+00	1.194470e+01
154	5.110884e+00	4.343611e+00	-2.936494e+00	1.269687e+01	1.741620e+01	6.018385e+00	1.214701e+01
155	5.152412e+00	4.420299e+00	-2.964207e+00	1.268031e+01	1.744741e+01	5.923917e+00	1.216320e+01
156	5.176484e+00	4.307613e+00	-3.022354e+00	1.282930e+01	1.736158e+01	5.868811e+00	1.207418e+01
157	5.215298e+00	3.993453e+00	-3.131830e+00	1.320176e+01	1.723673e+01	5.868811e+00	1.187996e+01
158	5.250952e+00	3.658456e+00	-3.372537e+00	1.372321e+01	1.718211e+01	5.719237e+00	1.155625e+01
159	5.292840e+00	3.075809e+00	-3.743163e+00	1.464135e+01	1.720552e+01	5.593280e+00	1.107070e+01
160	5.316917e+00	2.658528e+00	-3.887288e+00	1.514565e+01	1.704946e+01	5.601152e+00	1.081173e+01
161	5.355851e+00	2.063468e+00	-4.012595e+00	1.573263e+01	1.657348e+01	5.593280e+00	1.050421e+01
162	5.373612e+00	1.739987e+00	-4.100215e+00	1.606332e+01	1.640181e+01	5.616897e+00	1.030190e+01
163	5.406551e+00	9.388440e-01	-4.223346e+00	1.679085e+01	1.584000e+01	5.734981e+00	9.905360e+00
164	5.449430e+00	-7.547889e-01	-4.449841e+00	1.834510e+01	1.472418e+01	6.073491e+00	9.120376e+00
165	5.486535e+00	-2.294697e+00	-4.643281e+00	1.977534e+01	1.382684e+01	6.490724e+00	8.392041e+00
166	5.511206e+00	-3.136765e+00	-4.767619e+00	2.053594e+01	1.330404e+01	6.671787e+00	7.963132e+00
167	5.554059e+00	-5.723558e+00	-5.120353e+00	2.274331e+01	1.166542e+01	7.262211e+00	6.627851e+00
168	5.573888e+00	-6.472527e+00	-5.176713e+00	2.352044e+01	1.127527e+01	7.577104e+00	6.312239e+00
169	5.612781e+00	-7.815292e+00	-5.113805e+00	2.432236e+01	1.027649e+01	8.222634e+00	5.761941e+00
170	5.658615e+00	-9.306003e+00	-4.679196e+00	2.471093e+01	9.074837e+00	9.560927e+00	5.300662e+00
171	5.689108e+00	-9.416229e+00	-4.558529e+00	2.466132e+01	9.020216e+00	9.875819e+00	5.284477e+00
172	5.720525e+00	-9.717628e+00	-4.233068e+00	2.423969e+01	8.614463e+00	1.044263e+01	5.276385e+00
173	5.751197e+00	-1.006027e+01	-4.048295e+00	2.399994e+01	8.286739e+00	1.084411e+01	5.138810e+00
174	5.792826e+00	-1.037381e+01	-3.901197e+00	2.371885e+01	7.998030e+00	1.115901e+01	4.968865e+00
175	5.816304e+00	-1.048586e+01	-3.918646e+00	2.363618e+01	7.896591e+00	1.111965e+01	4.863661e+00
176	5.855636e+00	-1.068636e+01	-3.959369e+00	2.357004e+01	7.795153e+00	1.112752e+01	4.653253e+00
177	5.873365e+00	-1.080932e+01	-4.032391e+00	2.358657e+01	7.717123e+00	1.101731e+01	4.523771e+00
178	5.901880e+00	-1.090669e+01	-4.033843e+00	2.367751e+01	7.740532e+00	1.115901e+01	4.434753e+00
179	5.940077e+00	-1.096275e+01	-3.971935e+00	2.368578e+01	7.678108e+00	1.128496e+01	4.459030e+00
180	5.981702e+00	-1.092172e+01	-3.796581e+00	2.337162e+01	7.607882e+00	1.149752e+01	4.556142e+00
181	6.015714e+00	-1.088589e+01	-3.764916e+00	2.334682e+01	7.639093e+00	1.156049e+01	4.588512e+00
182	6.058581e+00	-1.080498e+01	-3.637052e+00	2.325588e+01	7.639093e+00	1.174156e+01	4.734179e+00
183	6.081094e+00	-1.078519e+01	-3.633447e+00	2.324761e+01	7.685911e+00	1.178092e+01	4.726087e+00
184	6.121415e+00	-1.088186e+01	-3.560170e+00	2.309054e+01	7.584473e+00	1.190688e+01	4.677531e+00
185	6.139544e+00	-1.098847e+01	-3.580101e+00	2.328895e+01	7.607882e+00	1.204071e+01	4.604698e+00
186	6.168328e+00	-1.100426e+01	-3.546672e+00	2.335509e+01	7.592276e+00	1.212730e+01	4.645160e+00
187	6.218629e+00	-1.115615e+01	-3.518578e+00	2.351217e+01	7.537655e+00	1.232411e+01	4.588512e+00
188	6.250874e+00	-1.117258e+01	-3.520203e+00	2.350390e+01	7.553261e+00	1.235560e+01	4.556142e+00
189	6.292591e+00	-1.121705e+01	-3.557839e+00	2.347910e+01	7.522049e+00	1.227688e+01	4.491401e+00
190	6.310360e+00	-1.116780e+01	-3.610984e+00	2.355351e+01	7.553261e+00	1.215092e+01	4.515679e+00
191	6.340161e+00	-1.119968e+01	-3.635790e+00	2.357004e+01	7.568867e+00	1.215092e+01	4.459030e+00
192	6.376458e+00	-1.124412e+01	-3.643477e+00	2.356177e+01	7.529852e+00	1.213517e+01	4.426660e+00
193	6.419981e+00	-1.125641e+01	-3.603644e+00	2.363618e+01	7.529852e+00	1.225326e+01	4.467123e+00
194	6.444853e+00	-1.134301e+01	-3.533355e+00	2.342123e+01	7.412808e+00	1.233198e+01	4.418568e+00
195	6.481241e+00	-1.141490e+01	-3.519339e+00	2.342123e+01	7.405005e+00	1.243432e+01	4.353826e+00
196	6.515895e+00	-1.147336e+01	-3.469942e+00	2.337989e+01	7.334778e+00	1.252092e+01	4.353826e+00
197	6.559639e+00	-1.151442e+01	-3.424441e+00	2.336336e+01	7.303566e+00	1.263113e+01	4.353826e+00
198	6.584035e+00	-1.153944e+01	-3.358891e+00	2.328068e+01	7.272354e+00	1.275709e+01	4.361919e+00
199	6.613061e+00	-1.153893e+01	-3.225458e+00	2.310707e+01	7.194325e+00	1.293815e+01	4.442845e+00
200	6.652818e+00	-1.157364e+01	-3.054924e+00	2.292519e+01	7.116296e+00	1.324517e+01	4.507586e+00
201	6.673420e+00	-1.154970e+01	-2.955596e+00	2.270197e+01	7.077281e+00	1.335538e+01	4.548049e+00
202	6.720345e+00	-1.170003e+01	-2.791822e+00	2.233821e+01	6.804177e+00	1.348134e+01	4.539957e+00
203	6.751964e+00	-1.166274e+01	-2.751404e+00	2.218940e+01	6.827586e+00	1.352857e+01	4.539957e+00
204	6.784155e+00	-1.156423e+01	-2.662380e+00	2.217287e+01	6.882207e+00	1.370177e+01	4.669438e+00
205	6.815113e+00	-1.158750e+01	-2.686302e+00	2.234648e+01	6.890010e+00	1.372538e+01	4.685624e+00
206	6.855692e+00	-1.157570e+01	-2.707121e+00	2.244568e+01	6.944630e+00	1.375687e+01	4.685624e+00
207	6.880044e+00	-1.162861e+01	-2.790693e+00	2.271851e+01	6.991448e+00	1.374113e+01	4.637068e+00
208	6.918030e+00	-1.162210e+01	-2.889624e+00	2.267717e+01	7.022660e+00	1.352070e+01	4.539957e+00
209	6.935563e+00	-1.162210e+01	-2.889624e+00	2.267717e+01	7.022660e+00	1.352070e+01	4.539957e+00
210	6.964895e+00	-1.171029e+01	-2.925792e+00	2.263583e+01	6.960236e+00	1.344198e+01	4.442845e+00
211	7.018360e+00	-1.169250e+01	-2.983148e+00	2.269370e+01	6.999251e+00	1.334751e+01	4.418568e+00
212	7.048756e+00	-1.168575e+01	-3.047368e+00	2.285905e+01	7.046069e+00	1.328453e+01	4.410475e+00
213	7.089955e+00	-1.161309e+01	-3.136060e+00	2.322281e+01	7.163113e+00	1.322155e+01	4.483308e+00
214	7.107792e+00	-1.163019e+01	-3.168034e+00	2.332202e+01	7.178719e+00	1.320581e+01	4.467123e+00
215	7.144281e+00	-1.163500e+01	-3.224344e+00	2.341296e+01	7.209931e+00	1.313496e+01	4.434753e+00
216	7.186618e+00	-1.169516e+01	-3.291996e+00	2.341296e+01	7.209931e+00	1.304049e+01	4.321456e+00
217	7.218551e+00	-1.168362e+01	-3.246999e+00	2.324761e+01	7.163113e+00	1.304049e+01	4.337641e+00
218	7.247897e+00	-1.160578e+01	-3.242859e+00	2.325588e+01	7.217734e+00	1.303262e+01	4.394289e+00
219	7.276933e+00	-1.166884e+01	-3.271417e+00	2.328895e+01	7.209931e+00	1.303262e+01	4.321456e+00
220	7.313944e+00	-1.162967e+01	-3.210015e+00	2.332202e+01	7.209931e+00	1.314283e+01	4.418568e+00
221	7.356097e+00	-1.162993e+01	-3.176667e+00	2.328068e+01	7.209931e+00	1.321368e+01	4.426660e+00
222	7.374436e+00	-1.161142e+01	-3.144716e+00	2.322281e+01	7.194325e+00	1.323730e+01	4.459030e+00
223	7.417942e+00	-1.166638e+01	-2.985030e+00	2.299133e+01	7.030463e+00	1.342623e+01	4.531864e+00
224	7.435746e+00	-1.159254e+01	-2.978770e+00	2.287559e+01	7.100690e+00	1.341836e+01	4.531864e+00
225	7.477458e+00	-1.152464e+01	-2.939435e+00	2.295826e+01	7.131902e+00	1.349708e+01	4.645160e+00
226	7.517345e+00	-1.147988e+01	-2.974395e+00	2.308227e+01	7.178719e+00	1.344985e+01	4.685624e+00
227	7.548920e+00	-1.144085e+01	-2.921703e+00	2.310707e+01	7.194325e+00	1.356006e+01	4.766550e+00
228	7.589777e+00	-1.125751e+01	-2.844595e+00	2.300786e+01	7.272354e+00	1.361517e+01	4.944587e+00
229	7.607648e+00	-1.127172e+01	-2.826638e+00	2.304093e+01	7.248946e+00	1.365453e+01	4.968865e+00
230	7.641578e+00	-1.105103e+01	-2.677207e+00	2.272677e+01	7.303566e+00	1.376474e+01	5.179273e+00
231	7.684129e+00	-1.098038e+01	-2.602538e+00	2.258623e+01	7.241143e+00	1.375687e+01	5.300662e+00
232	7.715898e+00	-1.071735e+01	-2.505215e+00	2.232168e+01	7.326975e+00	1.374113e+01	5.519163e+00
233	7.746538e+00	-1.044156e+01	-2.416784e+00	2.205712e+01	7.467429e+00	1.375687e+01	5.713385e+00
234	7.776773e+00	-1.031499e+01	-2.356704e+00	2.193311e+01	7.475231e+00	1.374113e+01	5.850960e+00
235	7.808240e+00	-9.743693e+00	-2.193715e+00	2.146188e+01	7.639093e+00	1.358368e+01	6.344610e+00
236	7.842216e+00	-9.328376e+00	-2.044782e+00	2.102371e+01	7.763941e+00	1.352857e+01	6.684499e+00
237	7.871650e+00	-9.328376e+00	-2.044782e+00	2.102371e+01	7.763941e+00	1.352857e+01	6.684499e+00
238	7.913572e+00	-8.654487e+00	-1.781135e+00	2.030445e+01	7.920000e+00	1.343411e+01	7.275260e+00
239	7.951353e+00	-7.503478e+00	-1.231238e+00	1.885767e+01	8.154088e+00	1.342623e+01	8.278744e+00
240	7.975028e+00	-7.503478e+00	-1.231238e+00	1.885767e+01	8.154088e+00	1.342623e+01	8.278744e+00
241	8.011461e+00	-6.598140e+00	-9.022358e-01	1.770852e+01	8.427192e+00	1.327666e+01	8.885690e+00
242	8.042581e+00	-5.230823e+00	-7.180178e-01	1.673298e+01	9.386956e+00	1.312709e+01	9.703044e+00
243	8.082517e+00	-4.095254e+00	-5.682048e-01	1.578223e+01	1.020627e+01	1.297751e+01	1.030190e+01
244	8.121564e+00	-2.773056e+00	-4.587921e-01	1.458347e+01	1.112701e+01	1.259964e+01	1.084410e+01
245	8.144010e+00	-2.131501e+00	-3.843007e-01	1.396324e+01	1.154837e+01	1.243432e+01	1.111116e+01
246	8.185824e+00	1.034980e+00	-2.738799e-01	1.123184e+01	1.367078e+01	1.119837e+01	1.219557e+01
247	8.204489e+00	1.034980e+00	-2.738799e-01	1.123184e+01	1.367078e+01	1.119837e+01	1.219557e+01
248	8.251852e+00	3.528270e+00	-5.718433e-01	9.783375e+00	1.598045e+01	1.007263e+01	1.298865e+01
249	8.277335e+00	5.149468e+00	-7.114310e-01	8.806693e+00	1.718211e+01	9.175183e+00	1.356322e+01
250	8.313186e+00	6.565359e+00	-9.156240e-01	8.103151e+00	1.829013e+01	8.277739e+00	1.405687e+01
251	8.355390e+00	7.970919e+00	-1.095024e+00	7.383054e+00	1.946837e+01	7.466891e+00	1.459853e+01
252	8.380768e+00	8.364082e+00	-1.145365e+00	7.184408e+00	1.987413e+01	7.277955e+00	1.477586e+01
253	8.419272e+00	8.736801e+00	-1.186684e+00	7.002314e+00	2.022526e+01	7.081148e+00	1.496125e+01
254	8.442722e+00	9.727169e+00	-1.328704e+00	6.530527e+00	2.101336e+01	6.435618e+00	1.534814e+01
255	8.480845e+00	1.060724e+01	-1.493847e+00	6.058740e+00	2.156737e+01	5.790088e+00	1.546905e+01
256	8.516841e+00	1.081637e+01	-1.557730e+00	5.942862e+00	2.170782e+01	5.624769e+00	1.542875e+01
257	8.558192e+00	1.124594e+01	-1.774422e+00	5.802154e+00	2.221501e+01	5.254770e+00	1.532396e+01
258	8.581064e+00	1.133701e+01	-1.891700e+00	5.901477e+00	2.255834e+01	5.136686e+00	1.536427e+01
259	8.621159e+00	1.164824e+01	-1.997359e+00	5.669722e+00	2.265978e+01	4.884771e+00	1.516276e+01
260	8.645536e+00	1.169587e+01	-2.044742e+00	5.628337e+00	2.272221e+01	4.845410e+00	1.505797e+01
261	8.683727e+00	1.177360e+01	-2.114906e+00	5.653169e+00	2.283925e+01	4.735198e+00	1.503379e+01
262	8.717750e+00	1.196769e+01	-2.049037e+00	5.512460e+00	2.290948e+01	4.680091e+00	1.525948e+01
263	8.739532e+00	1.202639e+01	-2.062747e+00	5.512460e+00	2.298751e+01	4.632857e+00	1.531590e+01
264	8.777632e+00	1.207355e+01	-2.043798e+00	5.429690e+00	2.308114e+01	4.680091e+00	1.534008e+01
265	8.808224e+00	1.211026e+01	-1.950624e+00	5.413136e+00	2.291728e+01	4.656475e+00	1.554965e+01
266	8.845709e+00	1.212488e+01	-1.864771e+00	5.404859e+00	2.280024e+01	4.664347e+00	1.574310e+01
267	8.887451e+00	1.203625e+01	-1.724597e+00	5.388306e+00	2.262857e+01	4.813921e+00	1.593655e+01
268	8.905633e+00	1.203190e+01	-1.728309e+00	5.413136e+00	2.270660e+01	4.829665e+00	1.598491e+01
269	8.949193e+00	1.204169e+01	-1.666844e+00	5.421413e+00	2.269100e+01	4.853282e+00	1.617030e+01
270	8.983713e+00	1.210433e+01	-1.682525e+00	5.413136e+00	2.281584e+01	4.821793e+00	1.623479e+01
271	9.027846e+00	1.215403e+01	-1.537701e+00	5.231043e+00	2.245691e+01	4.853282e+00	1.629927e+01
272	9.050611e+00	1.216162e+01	-1.484096e+00	5.206212e+00	2.233206e+01	4.853282e+00	1.637181e+01
273	9.089351e+00	1.219587e+01	-1.314197e+00	5.098612e+00	2.200433e+01	4.884771e+00	1.659750e+01
274	9.112235e+00	1.217614e+01	-1.181583e+00	5.057227e+00	2.170002e+01	4.916261e+00	1.675871e+01
275	9.153118e+00	1.214290e+01	-1.076637e+00	5.057227e+00	2.145813e+01	4.939878e+00	1.691186e+01
276	9.170544e+00	1.211408e+01	-9.772283e-01	5.007565e+00	2.136449e+01	5.042218e+00	1.704889e+01
277	9.199077e+00	1.213888e+01	-9.559615e-01	5.032396e+00	2.137230e+01	5.018601e+00	1.717785e+01
278	9.249300e+00	1.196827e+01	-8.529068e-01	5.098612e+00	2.131767e+01	5.231154e+00	1.735518e+01
279	9.292702e+00	1.187321e+01	-7.703013e-01	5.106889e+00	2.124745e+01	5.372855e+00	1.746803e+01
280	9.311184e+00	1.184416e+01	-7.643483e-01	5.181381e+00	2.118502e+01	5.341366e+00	1.753251e+01
281	9.344195e+00	1.173962e+01	-5.945719e-01	5.123442e+00	2.081829e+01	5.483067e+00	1.765342e+01
282	9.392501e+00	1.170051e+01	-5.207106e-01	5.065504e+00	2.065442e+01	5.553918e+00	1.766148e+01
283	9.424774e+00	1.174096e+01	-4.087180e-01	4.991011e+00	2.056859e+01	5.609024e+00	1.788717e+01
284	9.452224e+00	1.167793e+01	-3.845280e-01	5.048950e+00	2.052177e+01	5.648386e+00	1.795165e+01
285	9.484344e+00	1.175101e+01	-3.404899e-01	4.991011e+00	2.045935e+01	5.609024e+00	1.804837e+01
286	9.511677e+00	1.175776e+01	-3.563524e-01	4.991011e+00	2.049056e+01	5.601152e+00	1.802419e+01
287	9.548221e+00	1.171758e+01	-3.709994e-01	5.015842e+00	2.048276e+01	5.616897e+00	1.796777e+01
288	9.589315e+00	1.177733e+01	-3.756420e-01	4.982734e+00	2.045935e+01	5.553918e+00	1.795971e+01
289	9.613290e+00	1.178788e+01	-3.820195e-01	4.966180e+00	2.045935e+01	5.546046e+00	1.792747e+01
290	9.652923e+00	1.171268e+01	-3.269214e-01	4.966180e+00	2.033450e+01	5.624769e+00	1.794359e+01
291	9.676236e+00	1.167791e+01	-3.334776e-01	5.015842e+00	2.030329e+01	5.616897e+00	1.794359e+01
292	9.715317e+00	1.160733e+01	-2.854207e-01	4.941349e+00	2.016284e+01	5.719237e+00	1.782268e+01
293	9.747798e+00	1.159000e+01	-3.294330e-01	4.974457e+00	2.013943e+01	5.672003e+00	1.770984e+01
294	9.780262e+00	1.154346e+01	-3.503281e-01	5.007565e+00	2.013943e+01	5.687748e+00	1.764536e+01
295	9.809176e+00	1.154346e+01	-3.503281e-01	5.007565e+00	2.013943e+01	5.687748e+00	1.764536e+01
296	9.839022e+00	1.149409e+01	-4.299451e-01	5.057227e+00	2.023306e+01	5.687748e+00	1.747609e+01
297	9.875042e+00	1.139260e+01	-6.527210e-01	5.247597e+00	2.058420e+01	5.656258e+00	1.716173e+01
298	9.918161e+00	1.118657e+01	-7.673562e-01	5.429690e+00	2.081829e+01	5.790088e+00	1.696828e+01
299	9.941423e+00	1.115851e+01	-8.809994e-01	5.537291e+00	2.091192e+01	5.703492e+00	1.680708e+01
300	9.983767e+00	1.085625e+01	-9.939413e-01	5.769046e+00	2.106018e+01	5.884556e+00	1.653302e+01
301	1.002758e+01	1.050613e+01	-1.049426e+00	5.959416e+00	2.084950e+01	6.034130e+00	1.616224e+01
302	1.005141e+01	1.043990e+01	-1.085852e+00	5.992524e+00	2.067783e+01	5.979023e+00	1.596880e+01
303	1.008107e+01	1.025926e+01	-1.095826e+00	6.108401e+00	2.054518e+01	6.049874e+00	1.584789e+01
304	1.012571e+01	9.731141e+00	-1.051099e+00	6.257387e+00	1.985072e+01	6.270299e+00	1.533202e+01
305	1.015925e+01	9.260230e+00	-1.020578e+00	6.431203e+00	1.921868e+01	6.412001e+00	1.491288e+01
306	1.018908e+01	8.632376e+00	-1.052244e+00	6.919544e+00	1.905482e+01	6.750510e+00	1.473556e+01
307	1.021826e+01	7.805489e+00	-1.200880e+00	7.672748e+00	1.878171e+01	7.018169e+00	1.434011e+01
308	1.025025e+01	7.107577e+00	-1.447136e+00	8.326629e+00	1.860225e+01	7.136253e+00	1.374126e+01
309	1.029299e+01	5.798486e+00	-2.278854e+00	1.064418e+01	1.917967e+01	7.049658e+00	1.308576e+01
310	1.031093e+01	4.469882e+00	-2.956739e+00	1.273825e+01	1.912504e+01	6.915829e+00	1.224413e+01
311	1.034034e+01	4.111352e+00	-3.161711e+00	1.309416e+01	1.872709e+01	6.687532e+00	1.177475e+01
312	1.037683e+01	3.304966e+00	-3.642726e+00	1.359078e+01	1.780634e+01	6.223065e+00	1.050421e+01
313	1.041940e+01	2.778077e+00	-3.906493e+00	1.404601e+01	1.747082e+01	6.097108e+00	9.913453e+00
314	1.044196e+01	2.223921e+00	-4.115755e+00	1.467442e+01	1.721332e+01	6.057746e+00	9.533099e+00
315	1.048077e+01	1.506436e+00	-4.351409e+00	1.563342e+01	1.700264e+01	6.089236e+00	9.185117e+00
316	1.051273e+01	7.020758e-01	-4.517848e+00	1.659243e+01	1.662810e+01	6.207321e+00	8.861412e+00
317	1.054449e+01	-1.834439e-01	-4.599715e+00	1.728688e+01	1.584780e+01	6.325405e+00	8.472967e+00
318	1.057376e+01	-3.880954e-01	-4.579032e+00	1.741089e+01	1.566053e+01	6.412001e+00	8.416319e+00
319	1.061175e+01	-6.661258e-01	-4.665416e+00	1.770852e+01	1.547326e+01	6.380511e+00	8.254466e+00
320	1.065265e+01	-9.346173e-01	-4.639405e+00	1.793174e+01	1.527819e+01	6.514341e+00	8.205911e+00
321	1.067043e+01	-9.116721e-01	-4.657169e+00	1.791520e+01	1.524698e+01	6.443490e+00	8.205911e+00
322	1.070445e+01	-7.290691e-01	-4.625226e+00	1.777466e+01	1.538743e+01	6.427745e+00	8.311114e+00
323	1.074622e+01	-3.379144e-01	-4.575020e+00	1.738609e+01	1.555909e+01	6.293916e+00	8.489152e+00
324	1.078051e+01	-1.968778e-01	-4.582095e+00	1.726208e+01	1.567614e+01	6.246682e+00	8.513430e+00
325	1.082852e+01	3.042948e-01	-4.697782e+00	1.705540e+01	1.617553e+01	5.947534e+00	8.618634e+00
326	1.085637e+01	3.502174e-01	-4.752932e+00	1.699753e+01	1.630818e+01	5.931789e+00	8.513430e+00
327	1.087459e+01	5.544133e-01	-4.809849e+00	1.687352e+01	1.654227e+01	5.829450e+00	8.505338e+00
328	1.091838e+01	7.215497e-01	-4.896169e+00	1.689005e+01	1.679196e+01	5.695620e+00	8.513430e+00
329	1.094093e+01	8.324178e-01	-4.915192e+00	1.679085e+01	1.694022e+01	5.679875e+00	8.497245e+00
330	1.098212e+01	1.075249e+00	-4.954545e+00	1.666684e+01	1.715870e+01	5.546046e+00	8.561986e+00
331	1.101471e+01	1.323661e+00	-4.944445e+00	1.632788e+01	1.720552e+01	5.427961e+00	8.586263e+00
Cycle	Time [s]	CoP X [cm]	CoP Y [cm]	Back Left Force [kgf]	Back Right Force [kgf]	Front Left Force [kgf]	Front Right Force [kgf]
182	6.053621e+00	4.518837e+00	-2.712014e+00	1.208437e+01	1.754104e+01	6.404128e+00	1.217129e+01
183	6.081106e+00	4.535341e+00	-2.741957e+00	1.210093e+01	1.765029e+01	6.412001e+00	1.214701e+01
184	6.112742e+00	4.571292e+00	-2.758130e+00	1.206782e+01	1.768930e+01	6.388384e+00	1.212274e+01
185	6.142901e+00	4.640334e+00	-2.788745e+00	1.197677e+01	1.774392e+01	6.341150e+00	1.204990e+01
186	6.174154e+00	4.688880e+00	-2.837049e+00	1.194366e+01	1.782975e+01	6.293916e+00	1.197707e+01
187	6.208375e+00	4.759084e+00	-2.889157e+00	1.193539e+01	1.800142e+01	6.262427e+00	1.194470e+01
188	6.251787e+00	4.887307e+00	-2.945369e+00	1.186089e+01	1.811846e+01	6.152215e+00	1.190424e+01
189	6.271332e+00	4.934793e+00	-2.955657e+00	1.186917e+01	1.820430e+01	6.136470e+00	1.194470e+01
190	6.313610e+00	5.029565e+00	-2.992892e+00	1.185262e+01	1.833695e+01	6.073491e+00	1.196088e+01
191	6.367116e+00	5.113301e+00	-2.919278e+00	1.171191e+01	1.824331e+01	6.065619e+00	1.205799e+01
