Cycle	Time [s]	CoP X [cm]	CoP Y [cm]	Back Left Force [kgf]	Back Right Force [kgf]	Front Left Force [kgf]	Front Right Force [kgf]
182	6.045264e+00	8.429981e+00	-4.718820e+00	8.748819e+00	2.422964e+01	5.118085e+00	9.353144e+00
183	6.084335e+00	8.611512e+00	-4.714530e+00	8.675254e+00	2.439146e+01	5.032568e+00	9.489005e+00
184	6.125577e+00	8.917268e+00	-4.728907e+00	8.585341e+00	2.467657e+01	4.853759e+00	9.712778e+00
185	6.160244e+00	9.268467e+00	-4.800786e+00	8.372819e+00	2.483069e+01	4.597207e+00	9.744745e+00
186	6.185236e+00	9.748910e+00	-4.918538e+00	8.004993e+00	2.483069e+01	4.208491e+00	9.656834e+00
187	6.204175e+00	9.984796e+00	-5.015462e+00	7.866036e+00	2.483840e+01	3.975262e+00	9.576916e+00
188	6.249279e+00	1.049426e+01	-5.189734e+00	7.620818e+00	2.493857e+01	3.508804e+00	9.528965e+00
189	6.279025e+00	1.043593e+01	-5.225827e+00	7.849689e+00	2.523139e+01	3.501030e+00	9.648843e+00
190	6.312891e+00	1.031717e+01	-5.236722e+00	8.021341e+00	2.529304e+01	3.532127e+00	9.680810e+00
191	6.343896e+00	9.644917e+00	-5.134758e+00	8.560819e+00	2.536239e+01	4.021908e+00	9.704785e+00
192	6.375889e+00	9.389359e+00	-5.107026e+00	8.707950e+00	2.529304e+01	4.208491e+00	9.624867e+00
193	6.420735e+00	8.711446e+00	-5.123301e+00	9.026733e+00	2.447622e+01	4.589433e+00	8.841665e+00
194	6.441652e+00	8.345030e+00	-5.263533e+00	9.100299e+00	2.433752e+01	4.612755e+00	8.577933e+00
195	6.488697e+00	7.908926e+00	-5.464445e+00	9.386386e+00	2.430670e+01	4.744919e+00	8.018503e+00
196	6.514035e+00	7.640983e+00	-5.604601e+00	9.525342e+00	2.433752e+01	4.853759e+00	7.610918e+00
197	6.551725e+00	7.422193e+00	-5.810425e+00	9.778733e+00	2.463805e+01	4.908179e+00	7.227308e+00
198	6.581904e+00	7.456972e+00	-5.874168e+00	9.746038e+00	2.483840e+01	4.923728e+00	7.107430e+00
199	6.623099e+00	7.783661e+00	-6.154737e+00	9.729690e+00	2.561668e+01	4.682724e+00	6.891650e+00
200	6.641864e+00	7.880528e+00	-6.156696e+00	9.705168e+00	2.587868e+01	4.698273e+00	6.947593e+00
201	6.689155e+00	8.254550e+00	-6.377716e+00	9.566212e+00	2.634103e+01	4.387300e+00	6.803740e+00
202	6.721106e+00	8.650331e+00	-6.478495e+00	9.320994e+00	2.661844e+01	4.138523e+00	6.811731e+00
203	6.752277e+00	9.170562e+00	-6.606986e+00	9.051255e+00	2.685732e+01	3.742033e+00	6.883658e+00
204	6.785131e+00	9.458667e+00	-6.604149e+00	8.944994e+00	2.711932e+01	3.594321e+00	7.083455e+00
205	6.816679e+00	9.677782e+00	-6.668929e+00	8.895950e+00	2.731967e+01	3.415512e+00	7.147390e+00
206	6.856977e+00	1.014684e+01	-6.730637e+00	8.675254e+00	2.756625e+01	3.096765e+00	7.323210e+00
207	6.875154e+00	1.025033e+01	-6.755521e+00	8.642559e+00	2.765102e+01	3.019023e+00	7.355178e+00
208	6.908873e+00	1.034463e+01	-6.814368e+00	8.675254e+00	2.788219e+01	2.933505e+00	7.371161e+00
209	6.951066e+00	1.056787e+01	-6.788877e+00	8.577168e+00	2.816731e+01	2.863536e+00	7.554974e+00
210	6.975696e+00	1.063686e+01	-6.698161e+00	8.519950e+00	2.805943e+01	2.847988e+00	7.746779e+00
211	7.014642e+00	1.089818e+01	-6.512090e+00	8.192993e+00	2.777431e+01	2.809116e+00	8.066454e+00
212	7.047988e+00	1.102406e+01	-6.193008e+00	8.062210e+00	2.768955e+01	2.925731e+00	8.681827e+00
213	7.091090e+00	1.119772e+01	-5.876929e+00	7.890558e+00	2.738902e+01	2.949054e+00	9.313184e+00
214	7.116148e+00	1.135605e+01	-5.586497e+00	7.686210e+00	2.711161e+01	3.003474e+00	9.848639e+00
215	7.159354e+00	1.140986e+01	-5.410701e+00	7.596297e+00	2.688814e+01	3.042345e+00	1.016032e+01
216	7.190807e+00	1.153813e+01	-5.215380e+00	7.310209e+00	2.616380e+01	2.987925e+00	1.034413e+01
217	7.222193e+00	1.156347e+01	-5.217191e+00	7.277514e+00	2.600968e+01	2.933505e+00	1.032016e+01
218	7.247396e+00	1.162286e+01	-5.064309e+00	7.130384e+00	2.580162e+01	2.995700e+00	1.051996e+01
219	7.283173e+00	1.173614e+01	-4.866311e+00	7.073166e+00	2.571686e+01	3.003474e+00	1.098348e+01
220	7.330324e+00	1.201482e+01	-4.546835e+00	6.787079e+00	2.562439e+01	3.057894e+00	1.163882e+01
221	7.359840e+00	1.209125e+01	-4.454218e+00	6.729862e+00	2.563980e+01	3.073443e+00	1.186259e+01
222	7.394864e+00	1.229678e+01	-4.124566e+00	6.468296e+00	2.527763e+01	3.112314e+00	1.246198e+01
223	7.425436e+00	1.242157e+01	-3.987978e+00	6.329339e+00	2.504645e+01	3.081217e+00	1.270173e+01
224	7.456188e+00	1.251211e+01	-3.912779e+00	6.247600e+00	2.501563e+01	3.073443e+00	1.286956e+01
225	7.488487e+00	1.261204e+01	-3.869170e+00	6.165861e+00	2.505416e+01	3.057894e+00	1.298944e+01
226	7.520404e+00	1.260822e+01	-3.852740e+00	6.157687e+00	2.501563e+01	3.065668e+00	1.300543e+01
227	7.549163e+00	1.271482e+01	-3.665259e+00	6.002382e+00	2.483840e+01	3.112314e+00	1.333309e+01
228	7.592615e+00	1.273216e+01	-3.665787e+00	6.026904e+00	2.490775e+01	3.096765e+00	1.339703e+01
229	7.614514e+00	1.271082e+01	-3.704987e+00	6.092296e+00	2.503104e+01	3.088991e+00	1.338903e+01
230	7.656062e+00	1.277626e+01	-3.606632e+00	6.035078e+00	2.507728e+01	3.127863e+00	1.363678e+01
231	7.677036e+00	1.276040e+01	-3.545051e+00	6.018730e+00	2.501563e+01	3.174509e+00	1.373268e+01
232	7.717414e+00	1.289227e+01	-3.429957e+00	5.847078e+00	2.477675e+01	3.143411e+00	1.388453e+01
233	7.756080e+00	1.298584e+01	-3.344448e+00	5.732643e+00	2.471510e+01	3.151186e+00	1.403638e+01
234	7.781548e+00	1.305696e+01	-3.200891e+00	5.618208e+00	2.448393e+01	3.166734e+00	1.425945e+01
235	7.810325e+00	1.322497e+01	-3.113015e+00	5.446556e+00	2.426817e+01	3.088991e+00	1.437885e+01
236	7.842440e+00	1.322299e+01	-3.073245e+00	5.446556e+00	2.423734e+01	3.104540e+00	1.446641e+01
237	7.873093e+00	1.322757e+01	-3.032212e+00	5.430208e+00	2.426817e+01	3.143411e+00	1.456193e+01
238	7.909476e+00	1.306074e+01	-3.033653e+00	5.552817e+00	2.422964e+01	3.228929e+00	1.452213e+01
239	7.956792e+00	1.306505e+01	-3.025577e+00	5.528295e+00	2.419881e+01	3.236703e+00	1.450621e+01
240	7.988301e+00	1.299538e+01	-3.040881e+00	5.560991e+00	2.422964e+01	3.291123e+00	1.444253e+01
241	8.013825e+00	1.298610e+01	-3.073280e+00	5.577339e+00	2.416799e+01	3.252252e+00	1.435497e+01
242	8.048621e+00	1.296344e+01	-3.119874e+00	5.601860e+00	2.412946e+01	3.221154e+00	1.423557e+01
243	8.096311e+00	1.292256e+01	-3.157632e+00	5.634556e+00	2.412946e+01	3.221154e+00	1.414005e+01
244	8.124986e+00	1.282675e+01	-3.120627e+00	5.667252e+00	2.414487e+01	3.329995e+00	1.417189e+01
245	8.153760e+00	1.286399e+01	-3.016015e+00	5.626382e+00	2.406011e+01	3.353318e+00	1.439477e+01
246	8.172362e+00	1.286399e+01	-3.016015e+00	5.626382e+00	2.406011e+01	3.353318e+00	1.439477e+01
247	8.216563e+00	1.291862e+01	-2.936385e+00	5.536469e+00	2.387517e+01	3.345543e+00	1.448233e+01
248	8.253734e+00	1.294543e+01	-2.807454e+00	5.462904e+00	2.355923e+01	3.345543e+00	1.464153e+01
249	8.282608e+00	1.293530e+01	-2.744700e+00	5.438382e+00	2.347447e+01	3.384415e+00	1.472909e+01
250	8.327134e+00	1.284737e+01	-2.749778e+00	5.487425e+00	2.333576e+01	3.399963e+00	1.464153e+01
251	8.350838e+00	1.278946e+01	-2.766822e+00	5.520121e+00	2.343594e+01	3.462158e+00	1.460969e+01
252	8.386962e+00	1.280378e+01	-2.863479e+00	5.536469e+00	2.358235e+01	3.423286e+00	1.445049e+01
253	8.416624e+00	1.280261e+01	-2.891348e+00	5.552817e+00	2.366711e+01	3.423286e+00	1.442661e+01
254	8.459301e+00	1.291328e+01	-2.942683e+00	5.511947e+00	2.381352e+01	3.345543e+00	1.441069e+01
255	8.482023e+00	1.290021e+01	-2.957263e+00	5.520121e+00	2.381352e+01	3.345543e+00	1.437089e+01
256	8.522699e+00	1.285181e+01	-3.059383e+00	5.618208e+00	2.390599e+01	3.298898e+00	1.421965e+01
257	8.546492e+00	1.279578e+01	-3.098312e+00	5.708121e+00	2.388288e+01	3.267800e+00	1.417189e+01
258	8.587829e+00	1.274874e+01	-3.170820e+00	5.765339e+00	2.398305e+01	3.267800e+00	1.404437e+01
259	8.614838e+00	1.250915e+01	-3.266364e+00	5.953339e+00	2.413717e+01	3.392189e+00	1.382859e+01
260	8.655353e+00	1.230778e+01	-3.427636e+00	6.174035e+00	2.415258e+01	3.368866e+00	1.350092e+01
261	8.680666e+00	1.168107e+01	-3.597572e+00	6.664470e+00	2.395993e+01	3.555450e+00	1.297346e+01
262	8.714266e+00	1.146229e+01	-3.668500e+00	6.811600e+00	2.392911e+01	3.640967e+00	1.274169e+01
263	8.757761e+00	1.089506e+01	-3.959091e+00	7.318384e+00	2.413717e+01	3.812002e+00	1.209435e+01
264	8.782975e+00	1.042700e+01	-4.202586e+00	7.571775e+00	2.400617e+01	3.944165e+00	1.132713e+01
265	8.819143e+00	1.019821e+01	-4.247221e+00	7.743427e+00	2.385976e+01	3.998585e+00	1.115930e+01
266	8.836653e+00	1.000897e+01	-4.331948e+00	7.931428e+00	2.376729e+01	3.990811e+00	1.097549e+01
267	8.870615e+00	8.701814e+00	-4.514832e+00	9.100299e+00	2.329723e+01	4.387300e+00	1.039209e+01
268	8.912873e+00	7.698063e+00	-4.644264e+00	1.001578e+01	2.261912e+01	4.566110e+00	9.960526e+00
269	8.948667e+00	6.059121e+00	-4.838048e+00	1.169143e+01	2.167901e+01	4.869307e+00	9.441054e+00
270	8.991084e+00	4.727043e+00	-5.050152e+00	1.297474e+01	2.066955e+01	4.985922e+00	8.857648e+00
271	9.009968e+00	3.275255e+00	-5.249664e+00	1.417571e+01	1.939809e+01	5.118085e+00	8.162356e+00
272	9.053679e+00	1.566515e+00	-5.469712e+00	1.553916e+01	1.789546e+01	5.258023e+00	7.395137e+00
273	9.072374e+00	7.332837e-01	-5.525591e+00	1.615149e+01	1.722506e+01	5.429058e+00	7.059479e+00
274	9.120904e+00	-1.640911e+00	-5.568714e+00	1.798848e+01	1.539878e+01	6.066551e+00	6.316236e+00
275	9.153935e+00	-3.224006e+00	-5.677094e+00	1.928662e+01	1.431997e+01	6.463040e+00	5.724838e+00
276	9.180206e+00	-3.224006e+00	-5.677094e+00	1.928662e+01	1.431997e+01	6.463040e+00	5.724838e+00
277	9.209596e+00	-5.116579e+00	-5.902534e+00	2.103379e+01	1.331050e+01	6.991693e+00	4.885692e+00
278	9.245356e+00	-6.707428e+00	-6.093003e+00	2.241357e+01	1.232416e+01	7.349311e+00	4.182408e+00
279	9.292447e+00	-7.183152e+00	-6.140510e+00	2.280547e+01	1.199281e+01	7.442603e+00	3.990604e+00
280	9.325621e+00	-8.947984e+00	-6.157649e+00	2.381785e+01	1.059806e+01	7.932385e+00	3.335271e+00
